# Analysis start time: 				19969.760000000002 ms
# Analysis stop time:				21377.960000000003 ms
# Upper limit for maxima:			50.0 mV
# Lower limit for maxima:			-10.0 mV
# Upper limit for minima:			-50.0 mV
# Lower limit for minima:			-90.0 mV
# Maximum peak half width:			250.0 ms
# Minimum peak amplitude:			50.0 mV
# Running average window size:		25
# Window multiplier for derivative:	1.0
# Window multiplier for maxima:		4.0
# Window multiplier for minima:		16.0
# Time (ms)	Averaged signal (mV)	Filtered average (mV)
-1.778400e+02	-3.217008e+01	-3.220071e+01
-1.778200e+02	-3.219860e+01	-3.221507e+01
-1.778000e+02	-3.222400e+01	-3.223177e+01
-1.777800e+02	-3.224998e+01	-3.225018e+01
-1.777600e+02	-3.226725e+01	-3.227008e+01
-1.777400e+02	-3.229420e+01	-3.229144e+01
-1.777200e+02	-3.231710e+01	-3.231415e+01
-1.777000e+02	-3.234762e+01	-3.233734e+01
-1.776800e+02	-3.237558e+01	-3.236093e+01
-1.776600e+02	-3.239593e+01	-3.238442e+01
-1.776400e+02	-3.241985e+01	-3.240779e+01
-1.776200e+02	-3.244122e+01	-3.243068e+01
-1.776000e+02	-3.245750e+01	-3.245285e+01
-1.775800e+02	-3.247478e+01	-3.247347e+01
-1.775600e+02	-3.248852e+01	-3.249464e+01
-1.775400e+02	-3.250935e+01	-3.251587e+01
-1.775200e+02	-3.253123e+01	-3.253727e+01
-1.775000e+02	-3.255057e+01	-3.255794e+01
-1.774800e+02	-3.256682e+01	-3.257834e+01
-1.774600e+02	-3.259277e+01	-3.259858e+01
-1.774400e+02	-3.261667e+01	-3.261906e+01
-1.774200e+02	-3.264515e+01	-3.264012e+01
-1.774000e+02	-3.266907e+01	-3.266160e+01
-1.773800e+02	-3.269247e+01	-3.268339e+01
-1.773600e+02	-3.271178e+01	-3.270570e+01
-1.773400e+02	-3.273622e+01	-3.272782e+01
-1.773200e+02	-3.274995e+01	-3.274997e+01
-1.773000e+02	-3.276822e+01	-3.277152e+01
-1.772800e+02	-3.278503e+01	-3.279322e+01
-1.772600e+02	-3.280740e+01	-3.281449e+01
-1.772400e+02	-3.283283e+01	-3.283536e+01
-1.772200e+02	-3.285472e+01	-3.285567e+01
-1.772000e+02	-3.288067e+01	-3.287607e+01
-1.771800e+02	-3.290253e+01	-3.289659e+01
-1.771600e+02	-3.292033e+01	-3.291838e+01
-1.771400e+02	-3.294372e+01	-3.294067e+01
-1.771200e+02	-3.296153e+01	-3.296352e+01
-1.771000e+02	-3.298540e+01	-3.298660e+01
-1.770800e+02	-3.300477e+01	-3.301048e+01
-1.770600e+02	-3.302918e+01	-3.303411e+01
-1.770400e+02	-3.304647e+01	-3.305743e+01
-1.770200e+02	-3.307445e+01	-3.307999e+01
-1.770000e+02	-3.310140e+01	-3.310209e+01
-1.769800e+02	-3.312785e+01	-3.312381e+01
-1.769600e+02	-3.315482e+01	-3.314518e+01
-1.769400e+02	-3.318177e+01	-3.316700e+01
-1.769200e+02	-3.319498e+01	-3.318863e+01
-1.769000e+02	-3.321585e+01	-3.321001e+01
-1.768800e+02	-3.323517e+01	-3.323142e+01
-1.768600e+02	-3.325498e+01	-3.325272e+01
-1.768400e+02	-3.326873e+01	-3.327363e+01
-1.768200e+02	-3.328552e+01	-3.329436e+01
-1.768000e+02	-3.330433e+01	-3.331538e+01
-1.767800e+02	-3.332722e+01	-3.333604e+01
-1.767600e+02	-3.335065e+01	-3.335674e+01
-1.767400e+02	-3.337808e+01	-3.337730e+01
-1.767200e+02	-3.340403e+01	-3.339818e+01
-1.767000e+02	-3.342183e+01	-3.341984e+01
-1.766800e+02	-3.344675e+01	-3.344214e+01
-1.766600e+02	-3.346863e+01	-3.346445e+01
-1.766400e+02	-3.349052e+01	-3.348707e+01
-1.766200e+02	-3.350830e+01	-3.350965e+01
-1.766000e+02	-3.353628e+01	-3.353277e+01
-1.765800e+02	-3.355762e+01	-3.355565e+01
-1.765600e+02	-3.357493e+01	-3.357871e+01
-1.765400e+02	-3.359375e+01	-3.360118e+01
-1.765200e+02	-3.361665e+01	-3.362346e+01
-1.765000e+02	-3.364563e+01	-3.364553e+01
-1.764800e+02	-3.367053e+01	-3.366817e+01
-1.764600e+02	-3.369038e+01	-3.369111e+01
-1.764400e+02	-3.371530e+01	-3.371361e+01
-1.764200e+02	-3.373718e+01	-3.373632e+01
-1.764000e+02	-3.376010e+01	-3.375890e+01
-1.763800e+02	-3.378803e+01	-3.378118e+01
-1.763600e+02	-3.380635e+01	-3.380328e+01
-1.763400e+02	-3.382872e+01	-3.382596e+01
-1.763200e+02	-3.384248e+01	-3.384867e+01
-1.763000e+02	-3.386842e+01	-3.387076e+01
-1.762800e+02	-3.389182e+01	-3.389263e+01
-1.762600e+02	-3.391723e+01	-3.391432e+01
-1.762400e+02	-3.393400e+01	-3.393639e+01
-1.762200e+02	-3.395437e+01	-3.395865e+01
-1.762000e+02	-3.397877e+01	-3.398079e+01
-1.761800e+02	-3.399912e+01	-3.400284e+01
-1.761600e+02	-3.402252e+01	-3.402465e+01
-1.761400e+02	-3.405002e+01	-3.404614e+01
-1.761200e+02	-3.407083e+01	-3.406759e+01
-1.761000e+02	-3.408865e+01	-3.408881e+01
-1.760800e+02	-3.410847e+01	-3.410966e+01
-1.760600e+02	-3.413390e+01	-3.412942e+01
-1.760400e+02	-3.415273e+01	-3.414878e+01
-1.760200e+02	-3.417308e+01	-3.416790e+01
-1.760000e+02	-3.419037e+01	-3.418688e+01
-1.759800e+02	-3.420715e+01	-3.420525e+01
-1.759600e+02	-3.422190e+01	-3.422356e+01
-1.759400e+02	-3.423972e+01	-3.424148e+01
-1.759200e+02	-3.425650e+01	-3.425920e+01
-1.759000e+02	-3.427478e+01	-3.427703e+01
-1.758800e+02	-3.429515e+01	-3.429496e+01
-1.758600e+02	-3.430890e+01	-3.431345e+01
-1.758400e+02	-3.432718e+01	-3.433173e+01
-1.758200e+02	-3.434807e+01	-3.435012e+01
-1.758000e+02	-3.436992e+01	-3.436906e+01
-1.757800e+02	-3.438875e+01	-3.438788e+01
-1.757600e+02	-3.440960e+01	-3.440743e+01
-1.757400e+02	-3.443045e+01	-3.442734e+01
-1.757200e+02	-3.444467e+01	-3.444741e+01
-1.757000e+02	-3.446907e+01	-3.446743e+01
-1.756800e+02	-3.448843e+01	-3.448730e+01
-1.756600e+02	-3.450622e+01	-3.450728e+01
-1.756400e+02	-3.453165e+01	-3.452726e+01
-1.756200e+02	-3.454488e+01	-3.454775e+01
-1.756000e+02	-3.456727e+01	-3.456848e+01
-1.755800e+02	-3.458712e+01	-3.458929e+01
-1.755600e+02	-3.460695e+01	-3.461055e+01
-1.755400e+02	-3.463442e+01	-3.463174e+01
-1.755200e+02	-3.465068e+01	-3.465257e+01
-1.755000e+02	-3.466897e+01	-3.467309e+01
-1.754800e+02	-3.468933e+01	-3.469335e+01
-1.754600e+02	-3.471018e+01	-3.471290e+01
-1.754400e+02	-3.473612e+01	-3.473208e+01
-1.754200e+02	-3.475697e+01	-3.475084e+01
-1.754000e+02	-3.478140e+01	-3.476937e+01
-1.753800e+02	-3.479920e+01	-3.478791e+01
-1.753600e+02	-3.481193e+01	-3.480586e+01
-1.753400e+02	-3.482767e+01	-3.482390e+01
-1.753200e+02	-3.483685e+01	-3.484206e+01
-1.753000e+02	-3.485363e+01	-3.486025e+01
-1.752800e+02	-3.487193e+01	-3.487904e+01
-1.752600e+02	-3.489127e+01	-3.489807e+01
-1.752400e+02	-3.491060e+01	-3.491741e+01
-1.752200e+02	-3.492993e+01	-3.493728e+01
-1.752000e+02	-3.495483e+01	-3.495736e+01
-1.751800e+02	-3.497875e+01	-3.497803e+01
-1.751600e+02	-3.499807e+01	-3.499973e+01
-1.751400e+02	-3.502298e+01	-3.502200e+01
-1.751200e+02	-3.504740e+01	-3.504473e+01
-1.751000e+02	-3.507030e+01	-3.506722e+01
-1.750800e+02	-3.509113e+01	-3.508961e+01
-1.750600e+02	-3.511403e+01	-3.511134e+01
-1.750400e+02	-3.513795e+01	-3.513256e+01
-1.750200e+02	-3.515777e+01	-3.515362e+01
-1.750000e+02	-3.517708e+01	-3.517438e+01
-1.749800e+02	-3.519337e+01	-3.519460e+01
-1.749600e+02	-3.521525e+01	-3.521436e+01
-1.749400e+02	-3.523815e+01	-3.523407e+01
-1.749200e+02	-3.524832e+01	-3.525331e+01
-1.749000e+02	-3.526970e+01	-3.527206e+01
-1.748800e+02	-3.528643e+01	-3.529059e+01
-1.748600e+02	-3.530780e+01	-3.530927e+01
-1.748400e+02	-3.532815e+01	-3.532785e+01
-1.748200e+02	-3.534802e+01	-3.534666e+01
-1.748000e+02	-3.537037e+01	-3.536583e+01
-1.747800e+02	-3.538665e+01	-3.538527e+01
-1.747600e+02	-3.540447e+01	-3.540510e+01
-1.747400e+02	-3.542480e+01	-3.542553e+01
-1.747200e+02	-3.544310e+01	-3.544572e+01
-1.747000e+02	-3.545938e+01	-3.546602e+01
-1.746800e+02	-3.548328e+01	-3.548671e+01
-1.746600e+02	-3.550467e+01	-3.550722e+01
-1.746400e+02	-3.552858e+01	-3.552786e+01
-1.746200e+02	-3.554842e+01	-3.554801e+01
-1.746000e+02	-3.557333e+01	-3.556861e+01
-1.745800e+02	-3.559215e+01	-3.558911e+01
-1.745600e+02	-3.561095e+01	-3.560944e+01
-1.745400e+02	-3.563437e+01	-3.562936e+01
-1.745200e+02	-3.565267e+01	-3.564915e+01
-1.745000e+02	-3.566538e+01	-3.566872e+01
-1.744800e+02	-3.568725e+01	-3.568787e+01
-1.744600e+02	-3.570963e+01	-3.570691e+01
-1.744400e+02	-3.572997e+01	-3.572604e+01
-1.744200e+02	-3.574523e+01	-3.574561e+01
-1.744000e+02	-3.576355e+01	-3.576561e+01
-1.743800e+02	-3.578795e+01	-3.578624e+01
-1.743600e+02	-3.580018e+01	-3.580723e+01
-1.743400e+02	-3.581952e+01	-3.582830e+01
-1.743200e+02	-3.583985e+01	-3.584931e+01
-1.743000e+02	-3.586883e+01	-3.587049e+01
-1.742800e+02	-3.588917e+01	-3.589226e+01
-1.742600e+02	-3.591157e+01	-3.591393e+01
-1.742400e+02	-3.594157e+01	-3.593524e+01
-1.742200e+02	-3.596702e+01	-3.595669e+01
-1.742000e+02	-3.598583e+01	-3.597820e+01
-1.741800e+02	-3.600567e+01	-3.599923e+01
-1.741600e+02	-3.602293e+01	-3.601962e+01
-1.741400e+02	-3.603822e+01	-3.603945e+01
-1.741200e+02	-3.605243e+01	-3.605920e+01
-1.741000e+02	-3.607687e+01	-3.607806e+01
-1.740800e+02	-3.609925e+01	-3.609650e+01
-1.740600e+02	-3.611755e+01	-3.611462e+01
-1.740400e+02	-3.613228e+01	-3.613297e+01
-1.740200e+02	-3.615263e+01	-3.615137e+01
-1.740000e+02	-3.616942e+01	-3.616983e+01
-1.739800e+02	-3.618417e+01	-3.618868e+01
-1.739600e+02	-3.619993e+01	-3.620773e+01
-1.739400e+02	-3.622285e+01	-3.622683e+01
-1.739200e+02	-3.624370e+01	-3.624639e+01
-1.739000e+02	-3.626557e+01	-3.626570e+01
-1.738800e+02	-3.628642e+01	-3.628489e+01
-1.738600e+02	-3.630880e+01	-3.630380e+01
-1.738400e+02	-3.632862e+01	-3.632317e+01
-1.738200e+02	-3.634745e+01	-3.634315e+01
-1.738000e+02	-3.636730e+01	-3.636321e+01
-1.737800e+02	-3.638203e+01	-3.638334e+01
-1.737600e+02	-3.639780e+01	-3.640351e+01
-1.737400e+02	-3.641765e+01	-3.642345e+01
-1.737200e+02	-3.644053e+01	-3.644307e+01
-1.737000e+02	-3.646140e+01	-3.646203e+01
-1.736800e+02	-3.647663e+01	-3.648061e+01
-1.736600e+02	-3.650105e+01	-3.649930e+01
-1.736400e+02	-3.652140e+01	-3.651786e+01
-1.736200e+02	-3.654228e+01	-3.653630e+01
-1.736000e+02	-3.656108e+01	-3.655488e+01
-1.735800e+02	-3.657582e+01	-3.657324e+01
-1.735600e+02	-3.659515e+01	-3.659189e+01
-1.735400e+02	-3.660888e+01	-3.661045e+01
-1.735200e+02	-3.662670e+01	-3.662898e+01
-1.735000e+02	-3.664502e+01	-3.664763e+01
-1.734800e+02	-3.666077e+01	-3.666617e+01
-1.734600e+02	-3.668110e+01	-3.668489e+01
-1.734400e+02	-3.670502e+01	-3.670373e+01
-1.734200e+02	-3.672030e+01	-3.672238e+01
-1.734000e+02	-3.674060e+01	-3.674171e+01
-1.733800e+02	-3.676150e+01	-3.676156e+01
-1.733600e+02	-3.678133e+01	-3.678209e+01
-1.733400e+02	-3.680672e+01	-3.680308e+01
-1.733200e+02	-3.682353e+01	-3.682417e+01
-1.733000e+02	-3.684843e+01	-3.684551e+01
-1.732800e+02	-3.686778e+01	-3.686656e+01
-1.732600e+02	-3.688303e+01	-3.688777e+01
-1.732400e+02	-3.690543e+01	-3.690899e+01
-1.732200e+02	-3.692780e+01	-3.692988e+01
-1.732000e+02	-3.695168e+01	-3.695087e+01
-1.731800e+02	-3.697613e+01	-3.697228e+01
-1.731600e+02	-3.699647e+01	-3.699317e+01
-1.731400e+02	-3.701630e+01	-3.701379e+01
-1.731200e+02	-3.703412e+01	-3.703402e+01
-1.731000e+02	-3.705292e+01	-3.705378e+01
-1.730800e+02	-3.707225e+01	-3.707380e+01
-1.730600e+02	-3.709262e+01	-3.709332e+01
-1.730400e+02	-3.711547e+01	-3.711279e+01
-1.730200e+02	-3.713328e+01	-3.713224e+01
-1.730000e+02	-3.715260e+01	-3.715128e+01
-1.729800e+02	-3.717347e+01	-3.717008e+01
-1.729600e+02	-3.719025e+01	-3.718913e+01
-1.729400e+02	-3.720398e+01	-3.720809e+01
-1.729200e+02	-3.722332e+01	-3.722721e+01
-1.729000e+02	-3.724162e+01	-3.724621e+01
-1.728800e+02	-3.726300e+01	-3.726517e+01
-1.728600e+02	-3.728533e+01	-3.728396e+01
-1.728400e+02	-3.730213e+01	-3.730252e+01
-1.728200e+02	-3.732248e+01	-3.732129e+01
-1.728000e+02	-3.734490e+01	-3.734012e+01
-1.727800e+02	-3.736165e+01	-3.735923e+01
-1.727600e+02	-3.737895e+01	-3.737841e+01
-1.727400e+02	-3.739978e+01	-3.739732e+01
-1.727200e+02	-3.741252e+01	-3.741628e+01
-1.727000e+02	-3.743233e+01	-3.743484e+01
-1.726800e+02	-3.745068e+01	-3.745283e+01
-1.726600e+02	-3.747100e+01	-3.747070e+01
-1.726400e+02	-3.749033e+01	-3.748878e+01
-1.726200e+02	-3.750967e+01	-3.750719e+01
-1.726000e+02	-3.753153e+01	-3.752609e+01
-1.725800e+02	-3.754628e+01	-3.754486e+01
-1.725600e+02	-3.756358e+01	-3.756358e+01
-1.725400e+02	-3.758037e+01	-3.758287e+01
-1.725200e+02	-3.759510e+01	-3.760248e+01
-1.725000e+02	-3.761650e+01	-3.762203e+01
-1.724800e+02	-3.763582e+01	-3.764207e+01
-1.724600e+02	-3.765972e+01	-3.766183e+01
-1.724400e+02	-3.768412e+01	-3.768158e+01
-1.724200e+02	-3.770752e+01	-3.770108e+01
-1.724000e+02	-3.772430e+01	-3.772029e+01
-1.723800e+02	-3.774212e+01	-3.773936e+01
-1.723600e+02	-3.775788e+01	-3.775852e+01
-1.723400e+02	-3.777873e+01	-3.777798e+01
-1.723200e+02	-3.780260e+01	-3.779763e+01
-1.723000e+02	-3.781992e+01	-3.781733e+01
-1.722800e+02	-3.783468e+01	-3.783652e+01
-1.722600e+02	-3.785502e+01	-3.785524e+01
-1.722400e+02	-3.786927e+01	-3.787330e+01
-1.722200e+02	-3.788553e+01	-3.789099e+01
-1.722000e+02	-3.790282e+01	-3.790878e+01
-1.721800e+02	-3.792265e+01	-3.792655e+01
-1.721600e+02	-3.794607e+01	-3.794427e+01
-1.721400e+02	-3.796795e+01	-3.796152e+01
-1.721200e+02	-3.798675e+01	-3.797850e+01
-1.721000e+02	-3.800508e+01	-3.799542e+01
-1.720800e+02	-3.801575e+01	-3.801243e+01
-1.720600e+02	-3.802745e+01	-3.802989e+01
-1.720400e+02	-3.804575e+01	-3.804742e+01
-1.720200e+02	-3.805897e+01	-3.806492e+01
-1.720000e+02	-3.808188e+01	-3.808250e+01
-1.719800e+02	-3.809868e+01	-3.809999e+01
-1.719600e+02	-3.811290e+01	-3.811794e+01
-1.719400e+02	-3.813070e+01	-3.813604e+01
-1.719200e+02	-3.815105e+01	-3.815473e+01
-1.719000e+02	-3.817443e+01	-3.817425e+01
-1.718800e+02	-3.819682e+01	-3.819421e+01
-1.718600e+02	-3.821412e+01	-3.821473e+01
-1.718400e+02	-3.823393e+01	-3.823548e+01
-1.718200e+02	-3.825328e+01	-3.825593e+01
-1.718000e+02	-3.827413e+01	-3.827582e+01
-1.717800e+02	-3.829397e+01	-3.829530e+01
-1.717600e+02	-3.831890e+01	-3.831429e+01
-1.717400e+02	-3.834228e+01	-3.833317e+01
-1.717200e+02	-3.835703e+01	-3.835180e+01
-1.717000e+02	-3.837687e+01	-3.836967e+01
-1.716800e+02	-3.839060e+01	-3.838749e+01
-1.716600e+02	-3.840333e+01	-3.840512e+01
-1.716400e+02	-3.842113e+01	-3.842232e+01
-1.716200e+02	-3.843382e+01	-3.843921e+01
-1.716000e+02	-3.845010e+01	-3.845523e+01
-1.715800e+02	-3.846588e+01	-3.847088e+01
-1.715600e+02	-3.848318e+01	-3.848610e+01
-1.715400e+02	-3.850403e+01	-3.850111e+01
-1.715200e+02	-3.851978e+01	-3.851604e+01
-1.715000e+02	-3.853862e+01	-3.853156e+01
-1.714800e+02	-3.855387e+01	-3.854803e+01
-1.714600e+02	-3.857320e+01	-3.856505e+01
-1.714400e+02	-3.858185e+01	-3.858256e+01
-1.714200e+02	-3.859253e+01	-3.860042e+01
-1.714000e+02	-3.861033e+01	-3.861866e+01
-1.713800e+02	-3.862763e+01	-3.863763e+01
-1.713600e+02	-3.865103e+01	-3.865692e+01
-1.713400e+02	-3.867087e+01	-3.867645e+01
-1.713200e+02	-3.869373e+01	-3.869614e+01
-1.713000e+02	-3.871767e+01	-3.871619e+01
-1.712800e+02	-3.874207e+01	-3.873668e+01
-1.712600e+02	-3.876445e+01	-3.875749e+01
-1.712400e+02	-3.878275e+01	-3.877831e+01
-1.712200e+02	-3.880007e+01	-3.879942e+01
-1.712000e+02	-3.882395e+01	-3.882132e+01
-1.711800e+02	-3.884583e+01	-3.884269e+01
-1.711600e+02	-3.886513e+01	-3.886353e+01
-1.711400e+02	-3.888245e+01	-3.888404e+01
-1.711200e+02	-3.889973e+01	-3.890401e+01
-1.711000e+02	-3.892008e+01	-3.892390e+01
-1.710800e+02	-3.894097e+01	-3.894319e+01
-1.710600e+02	-3.895977e+01	-3.896221e+01
-1.710400e+02	-3.898060e+01	-3.898080e+01
-1.710200e+02	-3.899843e+01	-3.899909e+01
-1.710000e+02	-3.902485e+01	-3.901725e+01
-1.709800e+02	-3.904317e+01	-3.903542e+01
-1.709600e+02	-3.905487e+01	-3.905327e+01
-1.709400e+02	-3.907368e+01	-3.907133e+01
-1.709200e+02	-3.908947e+01	-3.908926e+01
-1.709000e+02	-3.910573e+01	-3.910729e+01
-1.708800e+02	-3.912252e+01	-3.912505e+01
-1.708600e+02	-3.913627e+01	-3.914237e+01
-1.708400e+02	-3.915457e+01	-3.915964e+01
-1.708200e+02	-3.917033e+01	-3.917701e+01
-1.708000e+02	-3.919117e+01	-3.919368e+01
-1.707800e+02	-3.921357e+01	-3.921008e+01
-1.707600e+02	-3.923388e+01	-3.922611e+01
-1.707400e+02	-3.924763e+01	-3.924248e+01
-1.707200e+02	-3.926442e+01	-3.925901e+01
-1.707000e+02	-3.927867e+01	-3.927553e+01
-1.706800e+02	-3.929748e+01	-3.929238e+01
-1.706600e+02	-3.931022e+01	-3.930988e+01
-1.706400e+02	-3.932547e+01	-3.932776e+01
-1.706200e+02	-3.934328e+01	-3.934619e+01
-1.706000e+02	-3.935698e+01	-3.936452e+01
-1.705800e+02	-3.936818e+01	-3.938278e+01
-1.705600e+02	-3.939160e+01	-3.940075e+01
-1.705400e+02	-3.941293e+01	-3.941873e+01
-1.705200e+02	-3.943583e+01	-3.943690e+01
-1.705000e+02	-3.945972e+01	-3.945568e+01
-1.704800e+02	-3.948262e+01	-3.947427e+01
-1.704600e+02	-3.950247e+01	-3.949297e+01
-1.704400e+02	-3.952380e+01	-3.951137e+01
-1.704200e+02	-3.953603e+01	-3.952951e+01
-1.704000e+02	-3.955077e+01	-3.954690e+01
-1.703800e+02	-3.956045e+01	-3.956398e+01
-1.703600e+02	-3.957470e+01	-3.958050e+01
-1.703400e+02	-3.959150e+01	-3.959641e+01
-1.703200e+02	-3.960928e+01	-3.961162e+01
-1.703000e+02	-3.962758e+01	-3.962676e+01
-1.702800e+02	-3.964690e+01	-3.964196e+01
-1.702600e+02	-3.965758e+01	-3.965709e+01
-1.702400e+02	-3.967388e+01	-3.967280e+01
-1.702200e+02	-3.968607e+01	-3.968928e+01
-1.702000e+02	-3.970082e+01	-3.970664e+01
-1.701800e+02	-3.971915e+01	-3.972456e+01
-1.701600e+02	-3.974000e+01	-3.974253e+01
-1.701400e+02	-3.975523e+01	-3.976028e+01
-1.701200e+02	-3.977763e+01	-3.977783e+01
-1.701000e+02	-3.979748e+01	-3.979524e+01
-1.700800e+02	-3.981475e+01	-3.981260e+01
-1.700600e+02	-3.983358e+01	-3.983021e+01
-1.700400e+02	-3.985035e+01	-3.984776e+01
-1.700200e+02	-3.987325e+01	-3.986554e+01
-1.700000e+02	-3.989005e+01	-3.988310e+01
-1.699800e+02	-3.990430e+01	-3.990065e+01
-1.699600e+02	-3.991343e+01	-3.991788e+01
-1.699400e+02	-3.992970e+01	-3.993449e+01
-1.699200e+02	-3.994497e+01	-3.995116e+01
-1.699000e+02	-3.996733e+01	-3.996785e+01
-1.698800e+02	-3.998312e+01	-3.998429e+01
-1.698600e+02	-4.000090e+01	-4.000091e+01
-1.698400e+02	-4.001925e+01	-4.001753e+01
-1.698200e+02	-4.003348e+01	-4.003462e+01
-1.698000e+02	-4.005382e+01	-4.005205e+01
-1.697800e+02	-4.007213e+01	-4.006960e+01
-1.697600e+02	-4.008842e+01	-4.008821e+01
-1.697400e+02	-4.010518e+01	-4.010701e+01
-1.697200e+02	-4.012148e+01	-4.012600e+01
-1.697000e+02	-4.014435e+01	-4.014493e+01
-1.696800e+02	-4.016012e+01	-4.016352e+01
-1.696600e+02	-4.017945e+01	-4.018173e+01
-1.696400e+02	-4.019877e+01	-4.020012e+01
-1.696200e+02	-4.021910e+01	-4.021853e+01
-1.696000e+02	-4.024355e+01	-4.023693e+01
-1.695800e+02	-4.025828e+01	-4.025535e+01
-1.695600e+02	-4.027658e+01	-4.027356e+01
-1.695400e+02	-4.029695e+01	-4.029170e+01
-1.695200e+02	-4.030815e+01	-4.030967e+01
-1.695000e+02	-4.032747e+01	-4.032709e+01
-1.694800e+02	-4.034372e+01	-4.034433e+01
-1.694600e+02	-4.035492e+01	-4.036129e+01
-1.694400e+02	-4.037528e+01	-4.037792e+01
-1.694200e+02	-4.039558e+01	-4.039467e+01
-1.694000e+02	-4.041442e+01	-4.041133e+01
-1.693800e+02	-4.042970e+01	-4.042808e+01
-1.693600e+02	-4.044597e+01	-4.044502e+01
-1.693400e+02	-4.046223e+01	-4.046217e+01
-1.693200e+02	-4.047598e+01	-4.047935e+01
-1.693000e+02	-4.049275e+01	-4.049642e+01
-1.692800e+02	-4.050955e+01	-4.051333e+01
-1.692600e+02	-4.053090e+01	-4.052978e+01
-1.692400e+02	-4.054665e+01	-4.054643e+01
-1.692200e+02	-4.056243e+01	-4.056281e+01
-1.692000e+02	-4.058735e+01	-4.057881e+01
-1.691800e+02	-4.059855e+01	-4.059485e+01
-1.691600e+02	-4.061532e+01	-4.061095e+01
-1.691400e+02	-4.062905e+01	-4.062734e+01
-1.691200e+02	-4.064180e+01	-4.064376e+01
-1.691000e+02	-4.065958e+01	-4.066033e+01
-1.690800e+02	-4.067128e+01	-4.067704e+01
-1.690600e+02	-4.068757e+01	-4.069378e+01
-1.690400e+02	-4.070893e+01	-4.071054e+01
-1.690200e+02	-4.072723e+01	-4.072745e+01
-1.690000e+02	-4.074198e+01	-4.074506e+01
-1.689800e+02	-4.076233e+01	-4.076258e+01
-1.689600e+02	-4.077862e+01	-4.077996e+01
-1.689400e+02	-4.079743e+01	-4.079784e+01
-1.689200e+02	-4.081777e+01	-4.081560e+01
-1.689000e+02	-4.083507e+01	-4.083344e+01
-1.688800e+02	-4.085338e+01	-4.085080e+01
-1.688600e+02	-4.087068e+01	-4.086807e+01
-1.688400e+02	-4.088797e+01	-4.088528e+01
-1.688200e+02	-4.090323e+01	-4.090195e+01
-1.688000e+02	-4.092100e+01	-4.091796e+01
-1.687800e+02	-4.093627e+01	-4.093393e+01
-1.687600e+02	-4.094592e+01	-4.094942e+01
-1.687400e+02	-4.096222e+01	-4.096424e+01
-1.687200e+02	-4.097900e+01	-4.097936e+01
-1.687000e+02	-4.099630e+01	-4.099456e+01
-1.686800e+02	-4.101003e+01	-4.100984e+01
-1.686600e+02	-4.102427e+01	-4.102522e+01
-1.686400e+02	-4.104462e+01	-4.104087e+01
-1.686200e+02	-4.105580e+01	-4.105724e+01
-1.686000e+02	-4.106953e+01	-4.107382e+01
